cm-1 Intensity 

-29.0 0.3104000000000001
-28.594857142857144 0.3271000000000001
-28.189714285714288 0.34460000000000013
-27.784571428571432 0.36250000000000016
-27.379428571428576 0.3809000000000001
-26.97428571428572 0.39880000000000015
-26.569142857142865 0.41610000000000014
-26.16400000000001 0.4322000000000001
-25.758857142857153 0.44620000000000004
-25.353714285714297 0.45730000000000004
-24.94857142857144 0.4655
-24.543428571428585 0.4698
-24.13828571428573 0.47040000000000004
-23.733142857142873 0.4675000000000001
-23.328000000000017 0.46060000000000006
-22.92285714285716 0.45099999999999996
-22.517714285714305 0.43789999999999996
-22.11257142857145 0.42289999999999994
-21.707428571428594 0.40629999999999994
-21.302285714285738 0.3888999999999999
-20.89714285714288 0.3710999999999999
-20.492000000000026 0.35329999999999995
-20.08685714285717 0.33599999999999997
-19.681714285714314 0.31949999999999995
-19.276571428571458 0.3036999999999999
-18.871428571428602 0.2888999999999999
-18.466285714285746 0.27519999999999994
-18.06114285714289 0.26239999999999997
-17.656000000000034 0.251
-17.25085714285718 0.24029999999999993
-16.845714285714323 0.23079999999999992
-16.440571428571467 0.2218999999999999
-16.03542857142861 0.21389999999999995
-15.630285714285753 0.2064
-15.225142857142895 0.19950000000000004
-14.820000000000038 0.19330000000000006
-14.41485714285718 0.18780000000000005
-14.009714285714322 0.18300000000000002
-13.604571428571465 0.17850000000000002
-13.199428571428607 0.17429999999999998
-12.79428571428575 0.17040000000000002
-12.389142857142891 0.1667
-11.984000000000034 0.16340000000000002
-11.578857142857176 0.1605
-11.173714285714318 0.15790000000000004
-10.76857142857146 0.15550000000000003
-10.363428571428603 0.1531
-9.958285714285745 0.15089999999999998
-9.553142857142888 0.14930000000000002
-9.14800000000003 0.1474
-8.742857142857172 0.14590000000000003
-8.337714285714314 0.14429999999999998
-7.932571428571458 0.14260000000000003
-7.527428571428601 0.14150000000000001
-7.122285714285744 0.1403
-6.717142857142887 0.13910000000000003
-6.3120000000000305 0.1381
-5.906857142857174 0.1373
-5.501714285714317 0.13620000000000002
-5.09657142857146 0.1355
-4.691428571428603 0.13470000000000001
-4.2862857142857465 0.134
-3.881142857142889 0.1333
-3.476000000000032 0.1325
-3.0708571428571747 0.1323
-2.6657142857143175 0.13169999999999998
-2.26057142857146 0.1312
-1.855428571428603 0.131
-1.4502857142857457 0.1306
-1.0451428571428885 0.1302
-0.6400000000000313 0.13
-0.23485714285717418 0.12960000000000002
0.17028571428568295 0.12910000000000002
0.5754285714285401 0.12910000000000002
0.9805714285713972 0.12910000000000002
1.3857142857142544 0.12880000000000003
1.7908571428571114 0.12880000000000003
2.1959999999999686 0.12890000000000001
2.601142857142826 0.12860000000000002
3.006285714285683 0.12830000000000003
3.4114285714285404 0.12840000000000001
3.8165714285713976 0.12840000000000001
4.2217142857142544 0.12840000000000001
4.626857142857111 0.1283
5.031999999999968 0.12830000000000003
5.437142857142825 0.12850000000000006
5.842285714285682 0.12850000000000003
6.2474285714285385 0.12860000000000005
6.652571428571395 0.12870000000000006
7.057714285714252 0.12880000000000005
7.462857142857109 0.12880000000000005
7.867999999999966 0.12890000000000007
8.273142857142822 0.12890000000000004
8.67828571428568 0.12930000000000005
9.083428571428538 0.13000000000000006
9.488571428571396 0.12990000000000004
9.893714285714253 0.13000000000000006
10.298857142857111 0.13000000000000006
10.703999999999969 0.13040000000000004
11.109142857142826 0.13050000000000006
11.514285714285684 0.13060000000000005
11.919428571428542 0.13080000000000006
12.3245714285714 0.13100000000000006
12.729714285714257 0.13160000000000005
13.134857142857115 0.13170000000000004
13.539999999999973 0.13220000000000007
13.94514285714283 0.13210000000000005
14.350285714285688 0.13250000000000003
14.755428571428546 0.13270000000000004
15.160571428571403 0.13320000000000004
15.565714285714261 0.13340000000000005
15.970857142857119 0.13360000000000002
16.375999999999976 0.13390000000000005
16.781142857142832 0.13440000000000002
17.186285714285688 0.13490000000000005
17.591428571428544 0.1355
17.9965714285714 0.136
18.401714285714256 0.13640000000000002
18.806857142857112 0.13680000000000003
19.211999999999968 0.13710000000000003
19.617142857142824 0.1375
20.02228571428568 0.138
20.427428571428536 0.13850000000000004
20.83257142857139 0.13870000000000005
21.237714285714247 0.13930000000000003
21.642857142857103 0.13960000000000006
22.04799999999996 0.14000000000000004
22.453142857142815 0.14040000000000005
22.85828571428567 0.14110000000000003
23.263428571428527 0.14190000000000005
23.668571428571383 0.14240000000000005
24.07371428571424 0.14280000000000004
24.478857142857095 0.14320000000000005
24.88399999999995 0.14400000000000004
25.289142857142807 0.14420000000000005
25.694285714285662 0.1451
26.09942857142852 0.14570000000000002
26.504571428571374 0.14630000000000004
26.90971428571423 0.14700000000000002
27.314857142857086 0.14770000000000005
27.719999999999942 0.14830000000000004
28.125142857142798 0.14940000000000003
28.530285714285654 0.15000000000000002
28.93542857142851 0.15070000000000003
29.340571428571366 0.15170000000000003
29.74571428571422 0.15220000000000003
30.150857142857078 0.15310000000000004
30.555999999999933 0.15390000000000004
30.96114285714279 0.15490000000000007
31.366285714285645 0.15570000000000006
31.7714285714285 0.15680000000000005
32.17657142857136 0.15750000000000006
32.58171428571421 0.15850000000000006
32.98685714285707 0.15930000000000005
33.391999999999925 0.16060000000000005
33.79714285714278 0.16160000000000002
34.20228571428564 0.16280000000000003
34.60742857142849 0.16390000000000005
35.01257142857135 0.16500000000000004
35.417714285714204 0.16620000000000004
35.82285714285706 0.1673
36.227999999999916 0.16840000000000002
36.63314285714277 0.17
37.03828571428563 0.1715
37.443428571428484 0.17279999999999998
37.84857142857134 0.17449999999999996
38.253714285714196 0.17620000000000002
38.65885714285705 0.1778
39.06399999999991 0.17980000000000002
39.469142857142764 0.18180000000000002
39.87428571428562 0.1835
40.279428571428475 0.1856
40.68457142857133 0.1876
41.08971428571419 0.19
41.49485714285704 0.192
41.8999999999999 0.19460000000000002
42.305142857142755 0.1968
42.71028571428561 0.1995
43.11542857142847 0.20240000000000002
43.52057142857132 0.20550000000000002
43.92571428571418 0.2085
44.330857142857035 0.212
44.73599999999989 0.21559999999999996
45.141142857142746 0.21969999999999995
45.5462857142856 0.22419999999999998
45.95142857142846 0.2287
46.356571428571314 0.2337
46.76171428571417 0.2387
47.166857142857026 0.24380000000000004
47.57199999999988 0.2498
47.97714285714274 0.2565
48.382285714285594 0.26320000000000005
48.78742857142845 0.27070000000000005
49.192571428571306 0.2788000000000001
49.59771428571416 0.28790000000000004
50.00285714285702 0.2971000000000001
50.40799999999987 0.30710000000000004
50.81314285714273 0.31789999999999996
51.218285714285585 0.3293
51.62342857142844 0.3412
52.0285714285713 0.3534999999999999
52.43371428571415 0.36619999999999997
52.83885714285701 0.3785999999999999
53.243999999999865 0.39089999999999997
53.64914285714272 0.4031
54.05428571428558 0.4142000000000001
54.45942857142843 0.4239000000000001
54.86457142857129 0.43220000000000014
55.269714285714144 0.4389000000000001
55.674857142857 0.4438000000000001
56.079999999999856 0.44660000000000005
56.48514285714271 0.44780000000000014
56.89028571428557 0.44770000000000004
57.295428571428424 0.4461000000000001
57.70057142857128 0.4435
58.105714285714136 0.4406
58.51085714285699 0.4376
58.91599999999985 0.4347999999999999
59.3211428571427 0.43249999999999983
59.72628571428556 0.43059999999999987
60.131428571428415 0.42959999999999987
60.53657142857127 0.42979999999999985
60.94171428571413 0.43129999999999996
61.34685714285698 0.4341
61.75199999999984 0.4385000000000001
62.157142857142695 0.4444000000000002
62.56228571428555 0.45140000000000013
62.96742857142841 0.46010000000000006
63.37257142857126 0.4711000000000001
63.77771428571412 0.4833000000000001
64.18285714285697 0.4978000000000001
64.58799999999984 0.5140999999999999
64.9931428571427 0.5330999999999997
65.39828571428556 0.5536999999999995
65.80342857142843 0.5764999999999995
66.20857142857129 0.6020999999999993
66.61371428571415 0.6300999999999991
67.01885714285702 0.6606999999999992
67.42399999999988 0.6938999999999994
67.82914285714274 0.7288999999999997
68.2342857142856 0.7660999999999996
68.63942857142847 0.8037999999999996
69.04457142857133 0.8422999999999996
69.4497142857142 0.8804999999999998
69.85485714285706 0.9172999999999999
70.25999999999992 0.9505999999999998
70.66514285714278 0.9808
71.07028571428565 1.0051
71.47542857142851 1.023
71.88057142857137 1.0336999999999998
72.28571428571423 1.0369999999999995
72.6908571428571 1.0322999999999996
73.09599999999996 1.0202
73.50114285714282 1.0018999999999998
73.90628571428569 0.9781999999999997
74.31142857142855 0.9504999999999995
74.71657142857141 0.9199999999999996
75.12171428571428 0.8883999999999996
75.52685714285714 0.8559999999999994
75.932 0.8244999999999995
76.33714285714287 0.7946999999999994
76.74228571428573 0.7661999999999994
77.14742857142859 0.7403999999999994
77.55257142857145 0.7173999999999995
77.95771428571432 0.6971999999999994
78.36285714285718 0.6804999999999994
78.76800000000004 0.6658999999999994
79.1731428571429 0.6545999999999994
79.57828571428577 0.6460999999999993
79.98342857142863 0.6404999999999994
80.3885714285715 0.6374999999999993
80.79371428571436 0.6370999999999993
81.19885714285722 0.6396999999999996
81.60400000000008 0.6450999999999995
82.00914285714295 0.6532999999999998
82.41428571428581 0.6638999999999999
82.81942857142867 0.6770999999999998
83.22457142857154 0.6929999999999998
83.6297142857144 0.7114999999999998
84.03485714285726 0.7323999999999997
84.44000000000013 0.7555999999999996
84.84514285714299 0.7811999999999996
85.25028571428585 0.8076999999999995
85.65542857142871 0.8355999999999997
86.06057142857158 0.8638999999999996
86.46571428571444 0.8916999999999995
86.8708571428573 0.9191999999999996
87.27600000000017 0.9456999999999997
87.68114285714303 0.9703999999999997
88.08628571428589 0.9927999999999995
88.49142857142876 1.0123999999999993
88.89657142857162 1.0292999999999992
89.30171428571448 1.0432999999999992
89.70685714285734 1.0548999999999993
90.11200000000021 1.0635999999999994
90.51714285714307 1.0689999999999995
90.92228571428593 1.0710999999999993
91.3274285714288 1.0703999999999994
91.73257142857166 1.0651999999999997
92.13771428571452 1.0557999999999996
92.54285714285739 1.0420999999999996
92.94800000000025 1.0235999999999994
93.35314285714311 1.0008
93.75828571428598 0.9738999999999998
94.16342857142884 0.9435999999999996
94.5685714285717 0.9106999999999996
94.97371428571456 0.8762999999999996
95.37885714285743 0.8400999999999996
95.78400000000029 0.8043999999999996
96.18914285714315 0.7684999999999996
96.59428571428602 0.7343999999999998
96.99942857142888 0.7014999999999997
97.40457142857174 0.6701999999999997
97.8097142857146 0.6411999999999995
98.21485714285747 0.6140999999999998
98.62000000000033 0.5892999999999998
99.0251428571432 0.5660999999999999
99.43028571428606 0.5447999999999998
99.83542857142892 0.5257999999999998
100.24057142857178 0.5079999999999999
100.64571428571465 0.4927999999999999
101.05085714285751 0.4782
101.45600000000037 0.4651
101.86114285714324 0.4532
102.2662857142861 0.4424000000000001
102.67142857142896 0.43250000000000005
103.07657142857182 0.4238000000000001
103.48171428571469 0.41550000000000004
103.88685714285755 0.4081
104.29200000000041 0.40160000000000007
104.69714285714328 0.39540000000000014
105.10228571428614 0.3902000000000001
105.507428571429 0.3857000000000001
105.91257142857187 0.3813000000000002
106.31771428571473 0.37750000000000017
106.72285714285759 0.37390000000000023
107.12800000000045 0.3712000000000002
107.53314285714332 0.36900000000000016
107.93828571428618 0.3664000000000001
108.34342857142904 0.3643
108.7485714285719 0.36260000000000003
109.15371428571477 0.3614
109.55885714285763 0.3605
109.9640000000005 0.35949999999999993
110.36914285714336 0.359
110.77428571428622 0.3587
111.17942857142909 0.35860000000000003
111.58457142857195 0.3587
111.98971428571481 0.359
112.39485714285767 0.3599
112.80000000000054 0.36099999999999993
113.2051428571434 0.36219999999999997
113.61028571428626 0.36349999999999993
114.01542857142913 0.36519999999999997
114.42057142857199 0.36700000000000005
114.82571428571485 0.3693
115.23085714285772 0.37179999999999996
115.63600000000058 0.3745
116.04114285714344 0.37700000000000006
116.4462857142863 0.3801
116.85142857142917 0.3841000000000001
117.25657142857203 0.388
117.6617142857149 0.39220000000000005
118.06685714285776 0.3967
118.47200000000062 0.4012
118.87714285714348 0.4066000000000001
119.28228571428635 0.41280000000000006
119.68742857142921 0.4184
120.09257142857207 0.42469999999999997
120.49771428571493 0.4311
120.9028571428578 0.4381
121.30800000000066 0.44520000000000004
121.71314285714352 0.45210000000000006
122.11828571428639 0.45940000000000003
122.52342857142925 0.46629999999999994
122.92857142857211 0.47289999999999993
123.33371428571498 0.4792999999999999
123.73885714285784 0.4856999999999999
124.1440000000007 0.4913999999999999
124.54914285714356 0.4973999999999999
124.95428571428643 0.5028999999999998
125.35942857142929 0.5085999999999998
125.76457142857215 0.5144999999999998
126.16971428571502 0.5201999999999998
126.57485714285788 0.5260999999999998
126.98000000000074 0.5328999999999998
127.3851428571436 0.5401999999999998
127.79028571428647 0.5486
128.19542857142932 0.5576
128.60057142857218 0.5675
129.00571428571504 0.5787999999999999
129.4108571428579 0.5907999999999999
129.81600000000077 0.6043999999999999
130.22114285714363 0.6186
130.6262857142865 0.6343999999999999
131.03142857142936 0.6506999999999997
131.43657142857222 0.6681999999999996
131.84171428571508 0.6866999999999998
132.24685714285795 0.7060999999999997
132.6520000000008 0.7260999999999995
133.05714285714367 0.7458999999999997
133.46228571428654 0.7663999999999997
133.8674285714294 0.7868999999999998
134.27257142857226 0.8078999999999996
134.67771428571513 0.8280999999999996
135.082857142858 0.8488999999999995
135.48800000000085 0.8692999999999994
135.89314285714372 0.8901999999999995
136.29828571428658 0.9117999999999995
136.70342857142944 0.9327999999999995
137.1085714285723 0.9534999999999997
137.51371428571517 0.9746999999999996
137.91885714285803 0.9962999999999995
138.3240000000009 1.0175999999999996
138.72914285714376 1.0389999999999993
139.13428571428662 1.0602999999999991
139.53942857142948 1.0820999999999992
139.94457142857235 1.1041999999999994
140.3497142857152 1.1264999999999996
140.75485714285807 1.1497999999999995
141.16000000000093 1.1731999999999994
141.5651428571438 1.197599999999999
141.97028571428666 1.2222999999999993
142.37542857142952 1.246499999999999
142.7805714285724 1.2701999999999993
143.18571428571525 1.2923999999999995
143.5908571428581 1.312699999999999
143.99600000000098 1.3301999999999996
144.40114285714384 1.3442999999999992
144.8062857142867 1.354299999999999
145.21142857142956 1.360599999999999
145.61657142857243 1.3625999999999991
146.0217142857153 1.3611999999999986
146.42685714285815 1.3572999999999988
146.83200000000102 1.350999999999999
147.23714285714388 1.3442999999999987
147.64228571428674 1.3372999999999986
148.0474285714296 1.3323999999999991
148.45257142857247 1.3287999999999998
148.85771428571533 1.3280999999999996
149.2628571428582 1.3307999999999993
149.66800000000106 1.337099999999999
150.07314285714392 1.348399999999999
150.47828571428678 1.363999999999999
150.88342857142965 1.384499999999999
151.2885714285725 1.409699999999999
151.69371428571537 1.4406999999999992
152.09885714285824 1.4761999999999993
152.5040000000011 1.5172999999999994
152.90914285714396 1.563799999999999
153.31428571428683 1.6158999999999992
153.7194285714297 1.6725999999999992
154.12457142857255 1.7334999999999994
154.52971428571541 1.798899999999999
154.93485714285828 1.8670999999999989
155.34000000000114 1.9371999999999991
155.745142857144 2.007799999999999
156.15028571428687 2.0782999999999996
156.55542857142973 2.1467000000000005
156.9605714285726 2.2120000000000015
157.36571428571546 2.2730000000000015
157.77085714285832 2.329700000000001
158.17600000000118 2.3813000000000017
158.58114285714404 2.4291000000000014
158.9862857142869 2.4736
159.39142857142977 2.516
159.79657142857263 2.558700000000001
160.2017142857155 2.604100000000002
160.60685714285836 2.6540000000000012
161.01200000000122 2.710700000000001
161.41714285714409 2.7761000000000022
161.82228571428695 2.8528000000000007
162.2274285714298 2.9424000000000015
162.63257142857267 3.0465000000000004
163.03771428571554 3.1658999999999993
163.4428571428584 3.3018999999999994
163.84800000000126 3.455200000000001
164.25314285714413 3.6268
164.658285714287 3.8156000000000008
165.06342857142985 4.0225
165.46857142857272 4.245100000000001
165.87371428571558 4.4809
166.27885714285844 4.726899999999999
166.6840000000013 4.9785
167.08914285714417 5.229300000000001
167.49428571428703 5.4741000000000035
167.8994285714299 5.703100000000002
168.30457142857276 5.909700000000001
168.70971428571562 6.086000000000002
169.11485714285848 6.226200000000002
169.52000000000135 6.325700000000001
169.9251428571442 6.383100000000003
170.33028571428707 6.397600000000005
170.73542857142994 6.373700000000006
171.1405714285728 6.314900000000005
171.54571428571566 6.228100000000005
171.95085714285852 6.119800000000006
172.3560000000014 5.996200000000004
172.76114285714425 5.863300000000004
173.1662857142871 5.724800000000004
173.57142857142998 5.584500000000003
173.97657142857284 5.443900000000004
174.3817142857157 5.304000000000004
174.78685714285857 5.164900000000005
175.19200000000143 5.0267000000000035
175.5971428571443 4.889700000000004
176.00228571428715 4.754000000000002
176.40742857143002 4.619300000000002
176.81257142857288 4.485500000000002
177.21771428571574 4.353700000000003
177.6228571428586 4.2238000000000016
178.02800000000147 4.095000000000003
178.43314285714433 3.968900000000002
178.8382857142872 3.843800000000003
179.24342857143006 3.719400000000002
179.64857142857292 3.596100000000001
180.05371428571578 3.4735000000000005
180.45885714285865 3.3524000000000003
180.8640000000015 3.232300000000002
181.26914285714437 3.1139000000000014
181.67428571428724 2.998000000000001
182.0794285714301 2.885399999999999
182.48457142857296 2.7747999999999995
182.88971428571583 2.6685000000000008
183.2948571428587 2.5660000000000007
183.70000000000155 2.4682
184.10514285714441 2.3748000000000005
184.51028571428728 2.286600000000001
184.91542857143014 2.2032000000000016
185.320571428573 2.1259999999999994
185.72571428571587 2.0541999999999994
186.13085714285873 1.9886
186.5360000000016 1.9284
186.94114285714446 1.8738000000000001
187.34628571428732 1.8253
187.75142857143018 1.7822999999999998
188.15657142857305 1.7446
188.5617142857159 1.7118000000000004
188.96685714285877 1.6843
189.37200000000163 1.6617
189.7771428571445 1.6434999999999997
190.18228571428736 1.6304999999999998
190.58742857143022 1.6216000000000002
190.9925714285731 1.6168999999999996
191.39771428571595 1.6168
191.8028571428588 1.6206
192.20800000000168 1.6292999999999997
192.61314285714454 1.6423999999999996
193.0182857142874 1.6602
193.42342857143026 1.6824999999999994
193.82857142857313 1.71
194.233714285716 1.7421
194.63885714285885 1.779
195.04400000000172 1.8208
195.44914285714458 1.8677999999999997
195.85428571428744 1.9195999999999998
196.2594285714303 1.976
196.66457142857317 2.0367
197.06971428571603 2.1000000000000005
197.4748571428589 2.1658000000000004
197.88000000000176 2.2329
198.28514285714462 2.298999999999999
198.69028571428748 2.364
